,Time(s),x(m),y(m),Distance(m)
0,0.00000000,8.90421000,-0.02496980,0.00000000
1,0.07900000,8.90144000,-0.11953800,0.00276851
2,0.15900000,8.88600000,-0.08077560,0.01821000
3,0.23900000,8.78169000,-0.12196000,0.12252100
4,0.32500000,8.79334000,-0.07833780,0.11086600
5,0.40500000,8.76128000,-0.07562840,0.14292500
6,0.48500000,8.78297000,-0.06175360,0.12123500
7,0.56500000,8.70881000,-0.04284340,0.19539900
8,0.65100000,8.69304000,-0.10690700,0.21116400
9,0.73100000,8.58286000,-0.03556620,0.32134600
10,0.81000000,8.55851000,-0.08844550,0.34569700
11,0.89100000,8.52237000,-0.03992970,0.38183400
12,0.97800000,8.50518000,-0.00026962,0.39902600
13,1.05600000,8.44208000,-0.01144040,0.46212400
14,1.13700000,8.42440000,-0.03044590,0.47980400
15,1.21600000,8.40873000,0.01679830,0.49547400
16,1.30200000,8.31427000,0.09366920,0.58993400
17,1.38200000,8.30844000,0.07694420,0.59576400
18,1.46200000,8.25971000,0.05027700,0.64449800
19,1.54200000,8.23678000,0.06078410,0.66742400
20,1.63000000,8.17458000,0.04312270,0.72962700
21,1.72100000,8.13571000,0.04060410,0.76850000
22,1.79000000,8.09828000,0.03649580,0.80592200
23,1.86700000,8.06137000,0.03092340,0.84283600
24,1.95300000,7.99786000,0.06383050,0.90634800
25,2.03300000,7.94241000,0.05193610,0.96179200
26,2.11300000,7.87369000,0.05909470,1.03051000
27,2.19800000,7.85151000,0.06430780,1.05269000
28,2.27800000,7.82849000,0.07062240,1.07572000
29,2.35900000,7.78160000,0.04704440,1.12260000
30,2.43900000,7.73443000,0.02699960,1.16978000
31,2.51900000,7.68833000,0.02692710,1.21588000
32,2.60400000,7.63675000,-0.00707430,1.26746000
33,2.68700000,7.58836000,-0.01391480,1.31584000
34,2.77400000,7.57898000,-0.01832100,1.32523000
35,2.84300000,7.53730000,-0.01707000,1.36691000
36,2.93000000,7.49351000,0.00907240,1.41070000
37,3.01000000,7.47558000,0.00086575,1.42863000
38,3.09000000,7.41614000,0.02459460,1.48807000
39,3.16900000,7.34987000,0.03601190,1.55434000
40,3.25500000,7.31631000,0.05199890,1.58790000
41,3.33500000,7.25319000,0.07044230,1.65101000
42,3.41400000,7.19915000,0.07722810,1.70505000
43,3.50000000,7.15314000,0.08332540,1.75107000
44,3.58000000,7.09891000,0.06649110,1.80530000
45,3.66000000,7.04993000,0.04966280,1.85428000
46,3.74100000,7.01001000,0.02999040,1.89420000
47,3.82600000,6.93505000,0.01286150,1.96915000
48,3.90600000,6.91020000,0.00561226,1.99401000
49,3.98600000,6.85789000,-0.01770370,2.04631000
50,4.06600000,6.83057000,-0.00043427,2.07363000
51,4.15100000,6.82721000,0.03103690,2.07699000
52,4.23100000,6.72882000,0.03727200,2.17539000
53,4.31100000,6.68438000,0.07238800,2.21982000
54,4.39200000,6.62903000,0.07553340,2.27518000
55,4.47700000,6.58217000,0.08489060,2.32203000
56,4.55700000,6.54144000,0.10937100,2.36277000
57,4.63700000,6.52917000,0.11784200,2.37503000
58,4.71900000,6.50387000,0.12210300,2.40034000
59,4.80200000,6.44983000,0.11773600,2.45438000
60,4.88300000,6.40155000,0.09270340,2.50265000
61,4.97000000,6.32886000,0.12067600,2.57535000
62,5.04800000,6.27012000,0.10185100,2.63408000
63,5.13000000,6.24234000,0.06561880,2.66187000
64,5.22800000,6.20072000,0.06076200,2.70349000
65,5.29100000,6.19141000,0.06648390,2.71280000
66,5.37300000,6.15610000,0.06499170,2.74811000
67,5.45300000,6.08808000,0.06433000,2.81613000
68,5.53300000,6.02111000,0.07847620,2.88309000
69,5.61300000,5.96616000,0.10178400,2.93805000
70,5.69900000,5.92668000,0.12728800,2.97752000
71,5.77800000,5.89325000,0.13246400,3.01096000
72,5.85800000,5.87020000,0.12775900,3.03400000
73,5.93900000,5.80820000,0.13784600,3.09601000
74,6.02500000,5.78025000,0.13101800,3.12395000
75,6.10500000,5.71588000,0.10095600,3.18833000
76,6.18400000,5.66419000,0.08424660,3.24002000
77,6.27400000,5.62798000,0.07326930,3.27622000
78,6.35000000,5.57863000,0.04365290,3.32558000
79,6.43000000,5.55141000,0.03929450,3.35279000
80,6.50900000,5.51731000,0.04205510,3.38689000
81,6.59500000,5.47471000,0.04927950,3.42950000
82,6.67500000,5.42544000,0.06264520,3.47877000
83,6.75500000,5.38599000,0.08533520,3.51821000
84,6.83500000,5.31416000,0.10106600,3.59005000
85,6.92100000,5.27136000,0.11291400,3.63285000
86,7.00200000,5.24589000,0.10662700,3.65832000
87,7.08100000,5.21101000,0.10774200,3.69320000
88,7.16100000,5.15222000,0.09939180,3.75198000
89,7.25700000,5.12914000,0.10856000,3.77506000
90,7.32600000,5.08188000,0.07309720,3.82233000
91,7.40700000,5.02005000,0.07028840,3.88416000
92,7.48600000,4.98093000,0.02222520,3.92327000
93,7.57200000,4.93418000,0.01887840,3.97003000
94,7.65200000,4.90635000,-0.00832728,3.99786000
95,7.73400000,4.86415000,0.01696610,4.04005000
96,7.81100000,4.84985000,0.02014790,4.05436000
97,7.89700000,4.79782000,0.00626924,4.10639000
98,7.97700000,4.77174000,0.01441070,4.13247000
99,8.05700000,4.71149000,0.01862180,4.19272000
100,8.13700000,4.65500000,-0.00258880,4.24920000
101,8.23600000,4.60530000,0.00301339,4.29891000
102,8.30200000,4.56470000,-0.02088780,4.33950000
103,8.38300000,4.53585000,0.00738700,4.36836000
104,8.46200000,4.49737000,0.00434582,4.40684000
105,8.54800000,4.44172000,0.02060740,4.46249000
106,8.62900000,4.38291000,-0.01706290,4.52130000
107,8.70800000,4.32648000,-0.01988070,4.57773000
108,8.78800000,4.27808000,-0.05442610,4.62613000
109,8.87400000,4.23285000,-0.05840360,4.67136000
110,8.95400000,4.20878000,-0.05214990,4.69543000
111,9.03300000,4.16304000,-0.05074330,4.74117000
112,9.11900000,4.11837000,-0.02232990,4.78583000
113,9.21800000,4.06942000,-0.00941645,4.83479000
114,9.28000000,4.01166000,0.00827610,4.89254000
115,9.35800000,3.95512000,0.03590510,4.94909000
116,9.44500000,3.90546000,0.03471700,4.99874000
117,9.52600000,3.86488000,0.04834600,5.03932000
118,9.60500000,3.82641000,0.04675160,5.07780000
119,9.68500000,3.78087000,0.04657270,5.12333000
120,9.77000000,3.73632000,0.01776800,5.16789000
121,9.85000000,3.67166000,0.01514530,5.23255000
122,9.93100000,3.61267000,0.01945640,5.29154000
123,10.01600000,3.56793000,0.01760600,5.33627000
124,10.09600000,3.52806000,0.00553929,5.37615000
125,10.17500000,3.48489000,0.00466297,5.41932000
126,10.25500000,3.44713000,0.02008110,5.45708000
127,10.34100000,3.39354000,0.02575220,5.51067000
128,10.42100000,3.34743000,0.05642780,5.55678000
129,10.50100000,3.29561000,0.06077400,5.60859000
130,10.58100000,3.24679000,0.06302160,5.65741000
131,10.66700000,3.19653000,0.06560020,5.70768000
132,10.75700000,3.15920000,0.06046510,5.74501000
133,10.82700000,3.11361000,0.06216150,5.79060000
134,10.90700000,3.06275000,0.07184290,5.84145000
135,10.99200000,3.01511000,0.02488970,5.88909000
136,11.07200000,2.94628000,0.02796370,5.95792000
137,11.15200000,2.90225000,0.01606410,6.00195000
138,11.23200000,2.86497000,0.00481433,6.03923000
139,11.31800000,2.81995000,0.01342990,6.08425000
140,11.39800000,2.77487000,0.01689710,6.12934000
141,11.47800000,2.72021000,0.04336140,6.18399000
142,11.55700000,2.64474000,0.05564270,6.25947000
143,11.64300000,2.60662000,0.06985690,6.29759000
144,11.72700000,2.58448000,0.10319000,6.31973000
145,11.80300000,2.54311000,0.10595100,6.36110000
146,11.88300000,2.50647000,0.10133700,6.39773000
147,11.96300000,2.47249000,0.07414740,6.43172000
148,12.04900000,2.43491000,0.06915150,6.46930000
149,12.13300000,2.38968000,0.04198440,6.51453000
150,12.22200000,2.33396000,0.02579130,6.57024000
151,12.29100000,2.27923000,0.01677410,6.62497000
152,12.37400000,2.23700000,0.02022220,6.66721000
153,12.45600000,2.18975000,0.00696141,6.71445000
154,12.53400000,2.14831000,0.00443359,6.75589000
155,12.61400000,2.09792000,0.02046130,6.80628000
156,12.70200000,2.00393000,0.01865840,6.90028000
157,12.77900000,1.95588000,0.01427770,6.94832000
158,12.85900000,1.93233000,0.01690190,6.97188000
159,12.94000000,1.92867000,0.05090170,6.97554000
160,13.02600000,1.89219000,0.04636330,7.01201000
