,Time(s),x(m),y(m),Distance(m)
0,0.00000000,8.09664000,-0.13526800,0.00000000
1,0.08700000,8.11774000,-0.08459360,0.02109620
2,0.17700000,8.15691000,-0.08241640,0.06027320
3,0.24100000,8.06967000,-0.10176800,0.02696600
4,0.31800000,8.07347000,-0.16381800,0.02317000
5,0.40600000,8.02073000,-0.09264400,0.07591400
6,0.48500000,7.96212000,-0.13344400,0.13452300
7,0.56300000,7.76875000,-0.13359000,0.32789500
8,0.64300000,7.68090000,-0.10269500,0.41573900
9,0.72300000,7.69031000,-0.10483600,0.40632600
10,0.81700000,7.74416000,-0.11601800,0.35248400
11,0.88900000,7.78476000,-0.13594400,0.31188500
12,0.97600000,7.65129000,-0.17956600,0.44535500
13,1.05400000,7.50189000,-0.15645700,0.59474600
14,1.12800000,7.39350000,-0.16275200,0.70313900
15,1.20800000,7.29830000,-0.18894900,0.79834100
16,1.31500000,7.36230000,-0.17493800,0.73434200
17,1.38600000,7.41866000,-0.08769010,0.67798300
18,1.45400000,7.29646000,-0.14600000,0.80018400
19,1.53400000,7.12584000,-0.12831400,0.97079800
20,1.61400000,7.01464000,-0.14819800,1.08200000
21,1.70100000,6.94334000,-0.15924000,1.15331000
22,1.77900000,6.93017000,-0.15310600,1.16647000
23,1.85900000,6.92844000,-0.15410500,1.16820000
24,1.93900000,6.93171000,-0.21101200,1.16493000
25,2.02100000,6.81691000,-0.20123600,1.27973000
26,2.09900000,6.64716000,-0.19487800,1.44948000
27,2.18300000,6.54788000,-0.19090300,1.54876000
28,2.27000000,6.56050000,-0.19017500,1.53614000
29,2.35600000,6.52622000,-0.19615200,1.57042000
30,2.42400000,6.51511000,-0.16847100,1.58153000
31,2.50600000,6.37404000,-0.16923300,1.72260000
32,2.60900000,6.19495000,-0.14152400,1.90169000
33,2.68300000,6.09273000,-0.14740300,2.00391000
34,2.75000000,6.08710000,-0.18505700,2.00954000
35,2.83000000,6.08144000,-0.18920700,2.01520000
36,2.90900000,6.03194000,-0.15762800,2.06470000
37,2.98900000,5.98154000,-0.15967200,2.11510000
38,3.07300000,5.83159000,-0.19303600,2.26505000
39,3.18000000,5.69769000,-0.18417600,2.39895000
40,3.25700000,5.73383000,-0.13851300,2.36281000
41,3.33700000,5.69856000,-0.14491600,2.39808000
42,3.39400000,5.62794000,-0.15426700,2.46870000
43,3.47900000,5.55548000,-0.12478000,2.54116000
44,3.56000000,5.44617000,-0.17167800,2.65047000
45,3.64000000,5.36616000,-0.18584600,2.73048000
46,3.72100000,5.25109000,-0.15596800,2.84555000
47,3.80800000,5.20777000,-0.15457400,2.88887000
48,3.88700000,5.14621000,-0.13385100,2.95043000
49,3.95900000,5.16233000,-0.18955500,2.93431000
50,4.04500000,5.08541000,-0.15050700,3.01123000
51,4.15000000,4.94569000,-0.17810400,3.15095000
52,4.21800000,4.90183000,-0.16031500,3.19481000
53,4.28500000,4.83645000,-0.15939800,3.26019000
54,4.36600000,4.76320000,-0.17479000,3.33344000
55,4.45300000,4.73141000,-0.16830400,3.36523000
56,4.55000000,4.65802000,-0.17047200,3.43862000
57,4.61300000,4.55996000,-0.15209800,3.53668000
58,4.70100000,4.50534000,-0.18041800,3.59130000
59,4.77400000,4.42489000,-0.17128600,3.67175000
60,4.85000000,4.37591000,-0.14922200,3.72073000
61,4.93600000,4.31653000,-0.14628100,3.78011000
62,5.01600000,4.23830000,-0.16162600,3.85834000
63,5.09900000,4.14637000,-0.15749300,3.95027000
64,5.17500000,4.08898000,-0.14183300,4.00766000
65,5.26700000,4.00848000,-0.13783400,4.08816000
66,5.34400000,3.95225000,-0.14338900,4.14439000
67,5.42100000,3.87757000,-0.12052900,4.21907000
68,5.50100000,3.79098000,-0.13078200,4.30566000
69,5.58300000,3.71634000,-0.14075500,4.38030000
70,5.68000000,3.64822000,-0.13498300,4.44842000
71,5.74800000,3.58598000,-0.14869300,4.51066000
72,5.82600000,3.52191000,-0.14067400,4.57473000
73,5.90600000,3.46464000,-0.14958900,4.63200000
74,5.98600000,3.38423000,-0.17693900,4.71241000
75,6.06900000,3.31550000,-0.16665300,4.78114000
76,6.15800000,3.25748000,-0.15143200,4.83916000
77,6.25600000,3.21141000,-0.14052400,4.88523000
78,6.33000000,3.14323000,-0.13809600,4.95341000
79,6.39300000,3.09216000,-0.13814600,5.00448000
80,6.47100000,3.00253000,-0.12255200,5.09411000
81,6.55500000,2.90347000,-0.13334200,5.19317000
82,6.65100000,2.84319000,-0.14889400,5.25345000
83,6.71500000,2.79621000,-0.16561300,5.30043000
84,6.79700000,2.75826000,-0.18364400,5.33838000
85,6.88400000,2.69275000,-0.18139500,5.40389000
86,6.96800000,2.63193000,-0.18894200,5.46471000
87,7.03800000,2.55047000,-0.19617400,5.54617000
88,7.13800000,2.49009000,-0.17746000,5.60655000
89,7.21400000,2.43024000,-0.17081300,5.66640000
90,7.29000000,2.36799000,-0.17147900,5.72865000
91,7.36300000,2.30885000,-0.16257400,5.78779000
92,7.44100000,2.24326000,-0.16571300,5.85338000
93,7.52100000,2.16995000,-0.15531900,5.92670000
94,7.60700000,2.08591000,-0.16170800,6.01073000
95,7.68700000,2.03240000,-0.16121400,6.06424000
96,7.77600000,1.99413000,-0.16998600,6.10252000
97,7.86100000,1.93321000,-0.17561900,6.16343000
98,7.93500000,1.87050000,-0.17951500,6.22614000
99,8.00600000,1.81058000,-0.17587800,6.28606000
100,8.11400000,1.75989000,-0.16441100,6.33675000
101,8.19800000,1.70693000,-0.17117300,6.38971000
102,8.26200000,1.66018000,-0.17127500,6.43646000
103,8.33300000,1.58816000,-0.16431300,6.50848000
104,8.41200000,1.53125000,-0.17010300,6.56539000
105,8.49900000,1.46541000,-0.17383500,6.63123000
106,8.59900000,1.41671000,-0.18110600,6.67993000
107,8.66000000,1.36857000,-0.18762300,6.72807000
108,8.74200000,1.33092000,-0.18755400,6.76573000
109,8.83300000,1.28331000,-0.19240500,6.81333000
110,8.91000000,1.22573000,-0.18741500,6.87091000
111,8.97600000,1.16887000,-0.18610100,6.92777000
112,9.06300000,1.12037000,-0.17766800,6.97627000
113,9.15200000,1.07464000,-0.17366500,7.02200000
