,Time(s),x(m),y(m),Distance(m)
0,0.00000000,8.63199000,0.01241370,0.00000000
1,0.16100000,8.60764000,-0.07922590,0.02435580
2,0.24100000,8.55978000,0.06072980,0.07220610
3,0.40600000,8.35147000,0.00257243,0.28051900
4,0.48600000,8.27842000,-0.00831250,0.35357100
5,0.56600000,8.28607000,-0.06746520,0.34592000
6,0.64500000,8.26705000,-0.07700710,0.36494400
7,0.72500000,8.27551000,-0.08094050,0.35648500
8,0.80500000,8.25568000,-0.06925820,0.37630700
9,0.89100000,8.17054000,-0.02278780,0.46144800
10,0.97100000,8.09128000,-0.04984870,0.54071000
11,1.05100000,8.04560000,-0.04294420,0.58639500
12,1.13000000,8.02230000,-0.02319440,0.60969100
13,1.21100000,7.96745000,-0.01381000,0.66453800
14,1.29000000,7.98019000,0.00357719,0.65180200
15,1.37600000,7.94293000,-0.03955790,0.68906000
16,1.45700000,7.81384000,-0.04085380,0.81814600
17,1.53600000,7.77277000,-0.05030950,0.85922100
18,1.61600000,7.70582000,-0.05965290,0.92617100
19,1.69600000,7.68981000,-0.08630790,0.94218500
20,1.77600000,7.69733000,-0.07914570,0.93466200
21,1.86100000,7.60836000,-0.06960710,1.02363000
22,1.94100000,7.53844000,-0.08644630,1.09355000
23,2.02200000,7.45961000,-0.09017330,1.17238000
24,2.10100000,7.45167000,-0.09243710,1.18033000
25,2.18100000,7.41585000,-0.07930430,1.21614000
26,2.26100000,7.41395000,-0.08088660,1.21804000
27,2.34100000,7.35763000,-0.07138280,1.27436000
28,2.42600000,7.29060000,-0.09244230,1.34139000
29,2.50600000,7.17543000,-0.09383020,1.45657000
30,2.58600000,7.12910000,-0.08196060,1.50289000
31,2.66600000,7.16114000,-0.06889410,1.47085000
32,2.74600000,7.11188000,-0.09014330,1.52011000
33,2.82500000,7.07389000,-0.13189900,1.55810000
34,2.91200000,7.07740000,-0.12242200,1.55459000
35,2.99200000,6.98785000,-0.08765240,1.64414000
36,3.07100000,6.91478000,-0.09596920,1.71721000
37,3.15100000,6.85993000,-0.10897600,1.77206000
38,3.23100000,6.84464000,-0.09740440,1.78735000
39,3.31100000,6.81752000,-0.09167780,1.81448000
40,3.39100000,6.79536000,-0.08620610,1.83663000
41,3.47600000,6.77092000,-0.08434020,1.86107000
42,3.55600000,6.68999000,-0.08145150,1.94200000
43,3.63800000,6.59511000,-0.09546820,2.03688000
44,3.71600000,6.55755000,-0.05030060,2.07444000
45,3.79600000,6.50082000,-0.08534750,2.13118000
46,3.87500000,6.50026000,-0.08196190,2.13173000
47,3.95600000,6.43354000,-0.15571000,2.19845000
48,4.04100000,6.42770000,-0.13065700,2.20429000
49,4.12100000,6.33029000,-0.08624760,2.30170000
50,4.20100000,6.26050000,-0.12020300,2.37149000
51,4.28100000,6.29845000,-0.16933000,2.33354000
52,4.36100000,6.20326000,-0.13557400,2.42873000
53,4.44600000,6.17692000,-0.14282600,2.45507000
54,4.52600000,6.15431000,-0.11501700,2.47768000
55,4.60600000,6.08335000,-0.06168740,2.54864000
56,4.68600000,5.95362000,-0.14747600,2.67838000
57,4.76600000,5.92802000,-0.12099800,2.70397000
58,4.84600000,5.90249000,-0.10608600,2.72950000
59,4.92600000,5.86731000,-0.12853600,2.76468000
60,5.00600000,5.83853000,-0.13617200,2.79346000
61,5.09100000,5.79312000,-0.12594500,2.83887000
62,5.17200000,5.74932000,-0.14114400,2.88267000
63,5.25200000,5.73585000,-0.20008900,2.89614000
64,5.33200000,5.65698000,-0.17114700,2.97501000
65,5.41100000,5.59664000,-0.12828000,3.03535000
66,5.49100000,5.56971000,-0.12464600,3.06228000
67,5.57700000,5.54764000,-0.10378000,3.08435000
68,5.65700000,5.50204000,-0.11735200,3.12995000
69,5.73700000,5.41018000,-0.15580200,3.22181000
70,5.81600000,5.43961000,-0.07800640,3.19238000
71,5.89600000,5.38051000,-0.09585980,3.25148000
72,5.97600000,5.40401000,-0.08599940,3.22798000
73,6.05500000,5.34881000,-0.09982040,3.28318000
74,6.14200000,5.30981000,-0.11303000,3.32218000
75,6.22200000,5.28344000,-0.12378500,3.34855000
76,6.30100000,5.25029000,-0.13798200,3.38170000
77,6.38100000,5.14555000,-0.09921870,3.48644000
78,6.46100000,5.15176000,-0.14102600,3.48023000
79,6.54100000,5.09534000,-0.11801800,3.53666000
80,6.62100000,5.04934000,-0.12118700,3.58265000
81,6.70700000,5.02418000,-0.11243900,3.60781000
82,6.78700000,5.03612000,-0.16997600,3.59587000
83,6.86700000,4.97198000,-0.14271300,3.66001000
84,6.94600000,4.92288000,-0.10158900,3.70911000
85,7.02600000,4.86906000,-0.10181700,3.76293000
86,7.10600000,4.88449000,-0.04981850,3.74750000
87,7.18600000,4.79480000,-0.09536710,3.83719000
88,7.27200000,4.75569000,-0.11738400,3.87630000
89,7.35200000,4.73411000,-0.12422700,3.89788000
90,7.43100000,4.68864000,-0.10714500,3.94335000
91,7.51700000,4.61534000,-0.11084000,4.01665000
92,7.59100000,4.57473000,-0.13971700,4.05726000
93,7.67100000,4.53396000,-0.13762100,4.09803000
94,7.75700000,4.49975000,-0.12644400,4.13224000
95,7.83700000,4.47207000,-0.14632500,4.15992000
96,7.91700000,4.42381000,-0.13385500,4.20818000
97,7.99700000,4.37486000,-0.15290200,4.25713000
98,8.07600000,4.32728000,-0.10844900,4.30471000
99,8.15600000,4.31809000,-0.08524100,4.31390000
100,8.24200000,4.28663000,-0.08571690,4.34537000
101,8.32200000,4.25686000,-0.08539690,4.37513000
102,8.40200000,4.20490000,-0.10115400,4.42709000
103,8.48200000,4.15784000,-0.12084900,4.47416000
104,8.56300000,4.08871000,-0.12246600,4.54328000
105,8.64100000,4.04369000,-0.12455000,4.58830000
106,8.72100000,4.02188000,-0.15380400,4.61011000
107,8.80700000,3.99592000,-0.15956900,4.63607000
108,8.88800000,3.96791000,-0.17211300,4.66408000
109,8.96700000,3.89364000,-0.13137200,4.73835000
110,9.04600000,3.85181000,-0.16943400,4.78019000
111,9.12600000,3.79208000,-0.14711600,4.83991000
112,9.20600000,3.75846000,-0.15083100,4.87353000
113,9.28600000,3.74217000,-0.10215800,4.88982000
114,9.37200000,3.72211000,-0.09450860,4.90989000
115,9.45200000,3.67214000,-0.11391400,4.95986000
116,9.53100000,3.62199000,-0.13766900,5.01000000
117,9.61100000,3.55704000,-0.11689400,5.07496000
118,9.69200000,3.50991000,-0.13961800,5.12208000
119,9.77100000,3.46888000,-0.15105700,5.16311000
120,9.85200000,3.46107000,-0.18658200,5.17092000
121,9.93700000,3.41215000,-0.17812700,5.21984000
122,10.01700000,3.36611000,-0.15497600,5.26588000
123,10.09700000,3.32689000,-0.15707500,5.30510000
124,10.17600000,3.26947000,-0.17839100,5.36252000
125,10.25600000,3.21736000,-0.16957800,5.41463000
126,10.33600000,3.19505000,-0.12861300,5.43694000
127,10.42200000,3.18304000,-0.12381200,5.44895000
128,10.50200000,3.13336000,-0.12021200,5.49863000
129,10.58100000,3.07716000,-0.16160700,5.55483000
130,10.66200000,3.03694000,-0.17465400,5.59505000
131,10.74200000,2.97939000,-0.15775900,5.65260000
132,10.82100000,2.94049000,-0.18383600,5.69151000
133,10.90100000,2.91837000,-0.18738600,5.71362000
134,10.98800000,2.89724000,-0.19266700,5.73475000
135,11.06600000,2.84819000,-0.17813300,5.78380000
136,11.14600000,2.78231000,-0.17071000,5.84968000
137,11.22700000,2.73016000,-0.17018200,5.90183000
138,11.30700000,2.68707000,-0.14695800,5.94492000
139,11.38700000,2.65153000,-0.14030900,5.98046000
140,11.47200000,2.64908000,-0.11873700,5.98291000
141,11.55200000,2.60955000,-0.12292600,6.02244000
142,11.63200000,2.57165000,-0.13513900,6.06034000
143,11.71200000,2.51240000,-0.14658400,6.11959000
144,11.79200000,2.46582000,-0.15910800,6.16617000
145,11.87100000,2.41471000,-0.16144300,6.21728000
146,11.95100000,2.38239000,-0.16787200,6.24960000
147,12.03700000,2.35568000,-0.15946200,6.27631000
148,12.11800000,2.29731000,-0.15987000,6.33468000
149,12.19700000,2.24197000,-0.16366900,6.39002000
150,12.27800000,2.19309000,-0.15737400,6.43890000
151,12.35600000,2.15456000,-0.14982800,6.47743000
152,12.43700000,2.12491000,-0.14499200,6.50709000
153,12.51600000,2.09942000,-0.14137700,6.53257000
154,12.60400000,2.07797000,-0.14470200,6.55402000
155,12.68200000,2.03065000,-0.15477800,6.60134000
156,12.76100000,1.98300000,-0.16639900,6.64899000
157,12.84200000,1.93245000,-0.18316600,6.69955000
158,12.92200000,1.88783000,-0.19415400,6.74416000
159,13.00200000,1.85291000,-0.20281900,6.77908000
160,13.08100000,1.82832000,-0.20096300,6.80367000
161,13.16700000,1.80400000,-0.21129600,6.82799000
162,13.24700000,1.76378000,-0.20332800,6.86822000
163,13.32700000,1.72019000,-0.19317200,6.91180000
164,13.40600000,1.68691000,-0.18993600,6.94508000
165,13.48600000,1.65323000,-0.17964100,6.97876000
166,13.56600000,1.62479000,-0.17524100,7.00720000
