,Time(s),x(m),y(m),Distance(m)
0,0.00000000,9.19906000,-0.10102800,0.00000000
1,0.08600000,9.19129000,-0.08373790,0.00776976
2,0.17200000,9.18320000,-0.09335010,0.01586100
3,0.25800000,9.16968000,-0.09468640,0.02938300
4,0.34400000,9.10351000,-0.08422650,0.09554800
5,0.42400000,9.08451000,-0.05840090,0.11455300
6,0.51000000,9.03115000,-0.06834950,0.16790500
7,0.59600000,8.99699000,-0.04023650,0.20207200
8,0.68200000,8.98042000,0.00763150,0.21863600
9,0.76700000,8.90674000,-0.01360050,0.29231600
10,0.85300000,8.87072000,0.03013290,0.32833900
11,0.93400000,8.79147000,0.03554410,0.40759400
12,1.01900000,8.77430000,0.02844310,0.42476300
13,1.10600000,8.68683000,0.03110110,0.51223300
14,1.19100000,8.61066000,-0.00132036,0.58840100
15,1.27700000,8.56928000,0.00670128,0.62978300
16,1.36300000,8.58078000,0.00559769,0.61827700
17,1.44300000,8.53857000,0.03175550,0.66048500
18,1.52900000,8.49891000,0.00510237,0.70015400
19,1.61500000,8.38727000,-0.01282670,0.81178800
20,1.70100000,8.35077000,-0.01793720,0.84829200
21,1.78700000,8.25104000,-0.00303138,0.94801800
22,1.86700000,8.21543000,0.00741320,0.98363200
23,1.95300000,8.17438000,-0.00118519,1.02468000
24,2.03900000,8.06117000,0.02178320,1.13789000
25,2.12500000,7.97609000,0.03803240,1.22296000
26,2.21000000,7.93968000,0.04056730,1.25938000
27,2.29000000,7.85287000,0.03300270,1.34618000
28,2.37700000,7.79038000,0.02962880,1.40868000
29,2.46200000,7.70293000,0.04044690,1.49613000
30,2.54800000,7.60341000,0.02588640,1.59565000
31,2.63400000,7.55370000,-0.00268695,1.64536000
32,2.71400000,7.46883000,0.00131808,1.73023000
33,2.80000000,7.42247000,0.00415631,1.77659000
34,2.88600000,7.34428000,-0.00490622,1.85478000
35,2.97200000,7.27369000,0.00745405,1.92537000
36,3.05800000,7.19366000,0.00794807,2.00540000
37,3.14400000,7.09854000,0.03792150,2.10052000
38,3.22400000,7.00585000,0.04366840,2.19321000
39,3.31000000,6.93602000,0.05742310,2.26304000
40,3.39600000,6.87304000,0.04701550,2.32602000
41,3.48100000,6.79355000,0.05830480,2.40551000
42,3.56800000,6.71701000,0.05189870,2.48205000
43,3.65400000,6.63520000,0.02537380,2.56386000
44,3.73400000,6.55288000,0.02818050,2.64618000
45,3.81900000,6.49211000,0.01150610,2.70695000
46,3.90600000,6.40312000,0.00634380,2.79594000
47,3.99200000,6.32995000,0.02147260,2.86910000
48,4.07700000,6.26308000,0.01908410,2.93598000
49,4.15700000,6.20777000,0.01017700,2.99129000
50,4.24700000,6.11950000,0.03917850,3.07956000
51,4.32900000,6.02155000,0.05051170,3.17751000
52,4.41500000,5.93934000,0.04076410,3.25972000
53,4.50100000,5.91248000,0.07600790,3.28658000
54,4.58100000,5.82923000,0.04782790,3.36983000
55,4.66700000,5.74249000,0.05476110,3.45657000
56,4.75300000,5.68319000,0.05973230,3.51587000
57,4.83900000,5.61430000,0.04311370,3.58476000
58,4.92600000,5.51396000,0.01549850,3.68510000
59,5.00500000,5.44040000,0.00415806,3.75866000
60,5.09100000,5.38051000,-0.00351268,3.81854000
61,5.17700000,5.33069000,0.00117158,3.86837000
62,5.26200000,5.26022000,-0.02157780,3.93884000
63,5.34900000,5.18467000,0.00544758,4.01439000
64,5.42800000,5.10519000,0.00492556,4.09387000
65,5.51500000,5.00133000,-0.00176210,4.19773000
66,5.60000000,4.92914000,0.01611480,4.26992000
67,5.68700000,4.86869000,0.03425680,4.33037000
68,5.77200000,4.78914000,0.02203590,4.40992000
69,5.85800000,4.73346000,0.00737413,4.46560000
70,5.93800000,4.66266000,0.02500350,4.53640000
71,6.02500000,4.58085000,0.00764763,4.61821000
72,6.11000000,4.48789000,0.00812859,4.71117000
73,6.19600000,4.40888000,-0.00516755,4.79018000
74,6.28200000,4.35084000,0.00039068,4.84822000
75,6.36900000,4.27793000,-0.02284640,4.92113000
76,6.44800000,4.20951000,-0.02304730,4.98955000
77,6.53400000,4.13144000,-0.04882700,5.06762000
78,6.62000000,4.05281000,-0.02945460,5.14625000
79,6.70600000,3.96300000,-0.03803240,5.23606000
80,6.79200000,3.88660000,-0.01638650,5.31246000
81,6.87200000,3.82149000,-0.00450996,5.37757000
82,6.95800000,3.74996000,-0.00463791,5.44910000
83,7.04300000,3.67271000,0.00199427,5.52635000
84,7.12900000,3.59240000,0.00144003,5.60666000
85,7.21600000,3.51686000,-0.01180140,5.68220000
86,7.30100000,3.44969000,-0.03492980,5.74937000
87,7.38100000,3.38862000,-0.06245050,5.81044000
88,7.46800000,3.33178000,-0.06979870,5.86728000
89,7.55400000,3.27814000,-0.07365870,5.92092000
90,7.63900000,3.21468000,-0.05694140,5.98438000
91,7.72600000,3.13809000,-0.05608520,6.06097000
92,7.81100000,3.05641000,-0.04773070,6.14265000
93,7.89100000,2.98623000,-0.03696120,6.21283000
94,7.97700000,2.92210000,-0.01558190,6.27696000
95,8.06300000,2.86519000,-0.02509850,6.33387000
96,8.14900000,2.81016000,-0.02323180,6.38890000
97,8.22900000,2.74703000,-0.01202290,6.45202000
98,8.31500000,2.67799000,-0.01481590,6.52107000
99,8.40100000,2.59460000,-0.02263260,6.60446000
100,8.48600000,2.51410000,-0.02099640,6.68496000
101,8.57400000,2.44212000,-0.03238970,6.75694000
102,8.65300000,2.38763000,-0.04913830,6.81143000
103,8.75400000,2.33097000,-0.06470150,6.86809000
104,8.82700000,2.27336000,-0.07696170,6.92570000
105,8.91000000,2.20702000,-0.08140380,6.99204000
106,8.99700000,2.13215000,-0.07985060,7.06691000
