,Time(s),x(m),y(m),Distance(m)
0,0.00000000,7.33551000,0.19903900,0.00000000
1,0.07800000,7.26016000,0.15805700,0.07534590
2,0.15800000,7.20356000,0.15887500,0.13194800
3,0.24100000,7.17449000,0.14932000,0.16102200
4,0.31900000,7.11601000,0.13936500,0.21950200
5,0.40400000,7.06912000,0.18807400,0.26639300
6,0.50200000,7.00868000,0.15797700,0.32683000
7,0.56500000,6.97499000,0.21635100,0.36051400
8,0.64300000,6.84847000,0.17185300,0.48703400
9,0.72300000,6.80008000,0.22518900,0.53543100
10,0.80900000,6.74818000,0.21672900,0.58733000
11,0.88900000,6.67917000,0.22075000,0.65633800
12,0.96900000,6.63149000,0.17469400,0.70401600
13,1.04900000,6.58779000,0.19345100,0.74771900
14,1.12900000,6.49674000,0.15235400,0.83876500
15,1.20800000,6.42719000,0.13508200,0.90832100
16,1.29400000,6.35271000,0.12052100,0.98280200
17,1.37400000,6.27320000,0.15320000,1.06231000
18,1.45400000,6.19631000,0.17353100,1.13920000
19,1.53400000,6.15983000,0.19623900,1.17568000
20,1.61400000,6.06044000,0.15423100,1.27507000
21,1.69400000,5.98761000,0.19558100,1.34790000
22,1.77900000,5.89828000,0.18223500,1.43722000
23,1.85900000,5.82449000,0.19948700,1.51102000
24,1.93900000,5.73563000,0.20274900,1.59987000
25,2.04200000,5.67965000,0.21351500,1.65586000
26,2.10900000,5.63247000,0.17826000,1.70304000
27,2.17800000,5.56364000,0.16894300,1.77187000
28,2.26400000,5.47167000,0.15879600,1.86383000
29,2.34400000,5.39880000,0.14638500,1.93671000
30,2.42400000,5.31455000,0.18326300,2.02095000
31,2.51500000,5.24438000,0.15865000,2.09113000
32,2.58300000,5.18826000,0.14629300,2.14725000
33,2.66400000,5.12715000,0.19473400,2.20836000
34,2.75000000,5.05832000,0.19641100,2.27719000
35,2.83000000,4.98201000,0.17215800,2.35350000
36,2.90900000,4.90565000,0.16266700,2.42986000
37,3.00100000,4.81320000,0.17959500,2.52230000
38,3.06800000,4.73821000,0.20497000,2.59730000
39,3.15400000,4.68096000,0.21829700,2.65455000
40,3.23500000,4.61198000,0.19118900,2.72353000
41,3.31400000,4.55395000,0.19324900,2.78156000
42,3.39400000,4.47503000,0.20359900,2.86048000
43,3.49300000,4.39454000,0.19653600,2.94097000
44,3.55900000,4.31062000,0.19409700,3.02489000
45,3.64000000,4.23469000,0.18534400,3.10081000
46,3.72000000,4.16494000,0.16720800,3.17057000
47,3.80000000,4.10390000,0.18258000,3.23161000
48,3.87900000,4.03191000,0.16896800,3.30359000
49,3.96000000,3.95270000,0.16503900,3.38281000
50,4.03900000,3.88062000,0.14333600,3.45489000
51,4.12500000,3.79150000,0.16148900,3.54401000
52,4.20500000,3.70742000,0.16767700,3.62809000
53,4.28600000,3.63900000,0.16205600,3.69651000
54,4.36500000,3.56969000,0.17572600,3.76582000
55,4.44500000,3.50583000,0.18768400,3.82968000
56,4.52700000,3.43609000,0.18483000,3.89942000
57,4.61000000,3.35676000,0.15977500,3.97875000
58,4.69000000,3.26362000,0.16175300,4.07189000
59,4.77000000,3.18614000,0.14033900,4.14937000
60,4.85000000,3.10937000,0.13392600,4.22614000
61,4.93000000,3.04621000,0.12146200,4.28930000
62,5.03200000,2.98049000,0.11064000,4.35502000
63,5.11000000,2.89055000,0.10119700,4.44496000
64,5.17600000,2.80889000,0.11546100,4.52661000
65,5.25500000,2.72551000,0.11623300,4.61000000
66,5.33500000,2.64956000,0.14569200,4.68595000
67,5.41500000,2.58517000,0.16475900,4.75034000
68,5.51300000,2.51561000,0.18667400,4.81990000
69,5.58000000,2.44732000,0.19085000,4.88818000
70,5.66000000,2.37295000,0.19278000,4.96256000
71,5.74000000,2.30048000,0.18010100,5.03503000
72,5.82000000,2.20355000,0.18740700,5.13196000
73,5.90000000,2.14805000,0.16046600,5.18745000
74,5.98900000,2.08759000,0.13368000,5.24792000
75,6.06600000,2.02428000,0.12435500,5.31123000
76,6.14500000,1.96969000,0.11102900,5.36581000
77,6.22600000,1.91625000,0.12421300,5.41926000
78,6.30500000,1.84727000,0.12776700,5.48824000
79,6.39100000,1.76278000,0.11438600,5.57273000
80,6.47100000,1.69338000,0.13657900,5.64213000
81,6.55000000,1.63461000,0.15121900,5.70090000
82,6.63000000,1.58628000,0.15649400,5.74923000
83,6.71100000,1.53477000,0.15569900,5.80074000
84,6.79600000,1.49582000,0.16403900,5.83969000
85,6.87600000,1.45475000,0.15731800,5.88076000
86,6.95600000,1.40651000,0.14843400,5.92900000
87,7.04500000,1.34240000,0.12629000,5.99311000
88,7.11500000,1.26977000,0.12383100,6.06574000
89,7.19600000,1.20682000,0.12224700,6.12868000
90,7.28200000,1.15325000,0.10874600,6.18226000
91,7.36200000,1.11246000,0.09775440,6.22304000
92,7.44100000,1.06887000,0.08294320,6.26664000
93,7.54100000,1.02771000,0.10222200,6.30780000
94,7.61100000,0.97350200,0.10983200,6.36201000
95,7.68000000,0.90690700,0.11059500,6.42860000
96,7.76700000,0.84335500,0.11833600,6.49215000
97,7.84700000,0.78800800,0.12476800,6.54750000
98,7.92600000,0.74110000,0.13949400,6.59441000
99,8.00900000,0.69433800,0.13965400,6.64117000
100,8.08600000,0.66058600,0.13285300,6.67492000
101,8.17200000,0.63035500,0.11993900,6.70515000
102,8.25200000,0.59468000,0.10673000,6.74083000
103,8.33200000,0.54799000,0.08801840,6.78752000
104,8.41100000,0.48936800,0.06407400,6.84614000
105,8.49600000,0.43280700,0.03070590,6.90270000
106,8.57100000,0.38963700,0.02167430,6.94587000
107,8.65700000,0.36164600,0.01900870,6.97386000
108,8.73700000,0.34466900,0.03358420,6.99084000
109,8.81700000,0.32336600,0.02978290,7.01214000
